# mass [MeV]    sigma_e [cm^2]
1.000000000000000021e-03 4.705687470313617209e-41
1.151395399326446845e-03 5.454117154946759934e-41
1.325711365590109434e-03 6.340172673626112639e-41
1.526417967175233313e-03 7.377656358117623500e-41
1.757510624854791278e-03 8.573269088457738842e-41
2.023589647725157481e-03 1.016827234325978040e-40
2.329951810515372077e-03 1.193060453579422038e-40
2.682695795279724585e-03 1.432532418552082223e-40
3.088843596477481527e-03 1.678724288340404056e-40
3.556480306223128336e-03 2.022947709621684033e-40
4.094915062380427399e-03 2.400925236372444411e-40
4.714866363457394238e-03 2.890229498487340609e-40
5.428675439323859403e-03 3.489463974222078420e-40
6.250551925273976385e-03 4.298335828849984057e-40
7.196856730011521458e-03 5.128326503999750119e-40
8.286427728546841634e-03 6.214989313894820535e-40
9.540954763499944619e-03 7.608781598733369422e-40
1.098541141987558444e-02 9.307812306395504439e-40
1.264855216855295846e-02 1.136605603162376656e-39
1.456348477501243598e-02 1.393261765865452313e-39
1.676832936811008257e-02 1.733702327951160282e-39
1.930697728883249559e-02 2.133283485966349434e-39
2.222996482526194348e-02 2.661367839222016424e-39
2.559547922699535738e-02 3.337676751008537283e-39
2.947051702551809621e-02 4.185243417076189570e-39
3.393221771895327948e-02 5.153402641122648925e-39
3.906939937054616785e-02 6.408172762697040281e-39
4.498432668969446629e-02 8.030516104889272029e-39
5.179474679231210049e-02 9.867422989508858455e-39
5.963623316594642704e-02 1.228351680605522131e-38
6.866488450043001235e-02 1.482330758863529424e-38
7.906043210907696961e-02 1.815532619407670010e-38
9.102981779915217397e-02 2.214740693699213708e-38
1.048113134154685239e-01 2.649892515803993527e-38
1.206792640639328951e-01 3.169248134153254992e-38
1.389495494373137463e-01 3.775234686830717920e-38
1.599858719606057356e-01 4.403579887802748997e-38
1.842069969326716461e-01 5.056598334924029495e-38
2.120950887920190486e-01 5.808889885278861020e-38
2.442053094548649883e-01 6.554980920246455435e-38
2.811768697974230680e-01 7.323084840788351285e-38
3.237457542817643308e-01 8.033105532808983327e-38
3.727593720314937853e-01 8.756154148295329382e-38
4.291934260128778544e-01 9.494121504836830761e-38
4.941713361323833431e-01 1.031701019110736663e-37
5.689866029018293414e-01 1.173213263434551168e-37
6.551285568595509590e-01 1.374890218601217801e-37
7.543120063354614713e-01 1.605108682811336413e-37
8.685113737513520116e-01 1.840856046506071671e-37
1.000000000000000000e+00 2.123662074857520741e-37
1.529797999999999991e+00 3.352404581331548661e-37
2.398312999999999917e+00 4.185497495827751506e-37
3.577913999999999817e+00 4.603207223038824056e-37
5.683004000000000389e+00 5.147909511856077747e-37
7.669004000000000154e+00 5.370791836110350983e-37
1.079352300000000042e+01 5.451086056219126848e-37
1.481157999999999930e+01 5.809918973558093809e-37
2.100306499999999943e+01 6.066697148583228615e-37
2.821951100000000068e+01 7.593473173768808399e-37
3.696887600000000162e+01 9.577191070970842550e-37
4.971817800000000176e+01 1.277485115131233168e-36
6.837319899999999961e+01 1.512295094917818689e-36
9.890777599999999836e+01 1.503940017512391611e-36
1.416408079999999927e+02 1.346517838617063088e-36
1.930369110000000035e+02 1.204205628598190762e-36
2.622032169999999951e+02 1.071940981045139616e-36
3.897587589999999977e+02 9.076380026319051748e-37
5.195318600000000515e+02 7.661956115504135566e-37
8.558973999999999478e+02 5.707827110943587411e-37
9.063536380000000463e+02 5.560056210223114643e-37
1.220416382000000112e+03 4.550501412340685994e-37
1.619076538000000028e+03 3.818901419391380499e-37
2.992543701000000056e+03 2.349441144946914892e-37
3.896643066000000090e+03 1.847725167559813508e-37
1.058692382800000087e+04 6.922839763294332707e-38
1.541408789099999922e+04 5.089120988104493431e-38
2.035976757799999905e+04 4.070740587924328367e-38
2.793900781199999983e+04 3.445557474243562087e-38
3.504432031200000347e+04 2.627547440836838420e-38
3.936664843799999653e+04 4.682555377106133875e-38
4.113962500000000000e+04 7.320655015847665035e-38
4.196900000000000000e+04 1.086328608935535826e-37
4.430597656200000347e+04 1.871559410345683746e-37
5.030027734400000190e+04 3.343805713843326923e-37
6.284946484400000190e+04 8.481002507575585389e-37
8.915607812500000000e+04 1.071937971291030893e-36
1.446850000000000000e+05 1.043882046742189236e-36
2.588512000000000116e+05 1.031736685662686373e-36
4.115619000000000233e+05 1.023623391837316479e-36
5.798644000000000233e+05 1.019232160592893667e-36
8.205898000000000466e+05 1.006574138063562796e-36
1.459446000000000000e+06 1.001213765996176612e-36
2.903917000000000000e+06 9.977979960583455716e-37
6.138134000000000000e+06 1.004613784887505923e-36
